00:00.1	18	0
00:00.2	77	1
00:01.0	370	1
00:01.8	662	1
00:02.6	946	1
00:03.4	1231	1
00:04.2	1515	1
00:05.0	1809	1
00:05.7	2044	0
00:06.7	2402	1
00:07.5	2706	1
00:08.3	2998	1
00:09.1	3282	1
00:09.9	3560	1
00:10.7	3862	1
00:11.6	4170	1
00:12.4	4466	1
00:13.2	4764	1
00:14.1	5060	1
00:14.9	5346	1
00:15.6	5633	1
00:16.4	5918	1
00:17.3	6214	1
00:18.1	6527	1
00:19.0	6823	1
00:19.7	7106	1
00:20.5	7391	1
00:21.3	7670	1
00:22.1	7953	1
00:22.9	8245	1
00:23.7	8539	1
00:24.5	8837	1
00:25.4	9141	1
00:26.2	9431	1
00:27.0	9710	1
00:27.8	9998	1
00:28.6	10282	1
00:29.4	10591	1
00:30.3	10894	1
00:31.1	11191	1
00:31.9	11480	1
00:32.7	11781	1
00:33.5	12066	1
00:34.3	12350	1
00:35.1	12645	1
00:36.0	12949	1
00:36.8	13266	1
00:37.7	13562	1
00:38.5	13842	1
00:39.3	14131	1
00:40.1	14423	1
00:40.9	14710	1
00:41.7	15011	1
00:42.5	15310	1
00:43.4	15607	1
00:44.2	15899	1
00:45.0	16183	1
00:45.7	16464	1
00:46.5	16755	1
00:47.4	17058	1
00:48.2	17358	1
00:49.0	17657	1
00:49.9	17947	1
00:50.6	18227	1
00:51.4	18514	1
00:52.2	18795	1
00:53.0	19080	1
00:53.9	19388	1
00:54.7	19693	1
00:55.5	19989	1
00:56.3	20271	1
00:57.1	20554	1
00:57.9	20837	1
00:58.7	21131	1
00:59.5	21423	1
01:00.4	21729	1
01:01.2	22029	1
01:02.0	22321	1
01:02.8	22603	1
01:03.6	22881	1
01:04.3	23164	1
01:05.1	23453	1
01:06.0	23756	1
01:06.8	24053	1
01:07.6	24345	1
01:08.4	24625	1
01:09.2	24913	1
01:10.0	25197	1
01:10.8	25485	1
01:11.6	25779	1
01:12.5	26088	1
01:13.3	26387	1
01:14.1	26670	1
01:14.9	26952	1
01:15.7	27237	1
01:16.5	27536	1
01:17.3	27833	1
01:18.1	28132	1
01:19.0	28431	1
01:19.8	28727	1
01:20.6	29014	1
01:21.4	29294	1
01:22.2	29580	1
01:23.0	29873	1
01:23.8	30182	1
01:24.7	30487	1
01:25.5	30779	1
01:26.3	31065	1
01:27.1	31348	1
01:27.9	31635	1
01:28.7	31927	1
01:29.5	32224	1
01:30.4	32529	1
01:31.2	32836	1
01:32.0	33127	1
01:32.8	33403	1
01:33.6	33691	1
01:34.4	33980	1
01:35.2	34274	1
01:36.0	34575	1
01:36.9	34870	1
01:37.7	35168	1
01:38.5	35455	1
01:39.3	35736	1
01:40.0	36016	1
01:40.9	36309	1
01:41.7	36605	1
01:42.5	36916	1
01:43.4	37215	1
01:44.2	37499	1
01:45.0	37782	1
01:45.8	38071	1
01:46.5	38356	1
01:47.4	38651	1
01:48.2	38950	1
01:49.0	39252	1
01:49.9	39547	1
01:50.6	39825	1
01:51.4	40096	1
01:52.2	40382	1
01:53.0	40677	1
01:53.8	40970	1
01:54.6	41271	1
01:55.5	41567	1
01:56.2	41849	1
01:57.0	42117	1
01:57.8	42416	1
01:58.6	42697	1
01:59.4	42996	1
02:00.3	43307	1
02:01.1	43603	1
02:01.9	43892	1
02:02.7	44172	1
02:03.5	44455	1
02:04.3	44743	1
02:05.1	45030	1
02:05.9	45323	1
02:06.7	45628	1
02:07.6	45925	1
02:08.3	46204	1
02:09.1	46478	1
02:09.9	46759	1
02:10.7	47037	1
02:11.5	47334	1
02:12.3	47632	1
02:13.1	47919	1
02:13.9	48202	1
02:14.7	48486	1
02:15.5	48766	1
02:16.2	49040	1
02:17.0	49323	1
02:17.8	49618	1
02:18.7	49923	1
02:19.5	50214	1
02:20.3	50491	1
02:21.0	50771	1
02:21.8	51056	1
02:22.6	51339	1
02:23.4	51626	1
02:24.2	51921	1
02:25.0	52216	1
02:25.8	52506	1
02:26.6	52784	1
02:27.4	53063	1
02:28.2	53341	1
02:29.0	53631	1
02:29.8	53923	1
02:30.6	54219	1
02:31.4	54507	1
02:32.2	54784	1
02:33.0	55064	1
02:33.7	55343	1
02:34.5	55625	1
02:35.3	55908	1
02:36.1	56207	1
02:36.9	56502	1
02:37.7	56784	1
02:38.5	57055	1
02:39.3	57333	1
02:40.0	57615	1
02:40.8	57900	1
02:41.6	58192	1
02:42.5	58490	1
02:43.3	58788	1
02:44.1	59077	1
02:44.9	59354	1
02:45.6	59631	1
02:46.4	59919	1
02:47.3	60214	1
02:48.1	60515	1
02:48.9	60817	1
02:49.7	61105	1
02:50.5	61391	1
02:51.3	61680	1
02:52.1	61963	1
02:52.9	62247	1
02:53.7	62547	1
02:54.6	62852	1
02:55.4	63154	1
02:56.2	63438	1
02:57.0	63711	1
02:57.8	63998	1
02:58.6	64288	1
02:59.4	64581	1
03:00.2	64876	1
03:01.0	65174	1
03:01.8	65464	1
03:02.6	65750	1
03:03.4	66030	1
03:04.2	66307	1
03:05.0	66604	1
03:05.5	66792	0
03:06.5	67130	1
03:07.3	67434	1
03:08.1	67728	1
03:08.9	68007	1
03:09.7	68302	1
03:10.5	68594	1
03:11.3	68886	1
03:12.2	69191	1
03:13.1	69503	1
03:13.9	69796	1
03:14.6	70073	1
03:15.4	70357	1
03:16.2	70643	1
03:17.1	70941	1
03:17.9	71240	1
03:18.7	71539	1
03:19.6	71845	1
03:20.4	72138	1
03:21.2	72417	1
03:22.0	72703	1
03:22.8	72998	1
03:23.6	73301	1
03:24.5	73611	1
03:25.3	73911	1
03:26.1	74196	1
03:26.9	74483	1
03:27.7	74767	1
03:28.3	74986	0
03:29.3	75332	1
03:30.1	75632	1
03:30.9	75934	1
03:31.8	76233	1
03:32.5	76515	1
03:33.3	76785	1
03:34.1	77074	1
03:34.9	77366	1
03:35.7	77663	1
03:36.5	77954	1
03:37.4	78251	1
03:38.2	78539	1
03:39.0	78824	1
03:39.7	79100	1
03:40.5	79386	1
03:41.4	79689	1
03:42.2	79991	1
03:43.0	80290	1
03:43.8	80583	1
03:44.6	80868	1
03:45.4	81152	1
03:46.2	81439	1
03:47.0	81730	1
03:47.9	82030	1
03:48.7	82335	1
03:49.5	82636	1
03:50.4	82927	1
03:51.1	83209	1
03:51.9	83492	1
03:52.8	83794	1
03:53.6	84103	1
03:54.5	84407	1
03:55.3	84709	1
03:56.1	85010	1
03:57.0	85303	1
03:57.7	85580	1
03:58.5	85870	1
03:59.4	86171	1
04:00.2	86478	1
04:01.1	86780	1
04:01.9	87079	1
04:02.7	87364	1
04:03.5	87652	1
04:04.3	87941	1
04:05.1	88232	1
04:05.9	88530	1
04:06.8	88834	1
04:07.6	89135	1
04:08.4	89421	1
04:09.2	89703	1
04:10.0	89988	1
04:10.8	90286	1
04:11.6	90590	1
04:12.5	90885	1
04:13.3	91190	1
04:14.1	91481	1
04:14.9	91761	1
04:15.7	92046	1
04:16.5	92338	1
04:17.3	92633	1
04:18.2	92944	1
04:19.0	93246	1
04:19.8	93534	1
04:20.6	93824	1
04:21.4	94102	1
04:22.2	94395	1
04:23.0	94693	1
04:23.9	94996	1
04:24.7	95298	1
04:25.6	95606	1
04:26.4	95893	1
04:27.1	96171	1
04:27.9	96450	1
04:28.7	96746	1
04:29.6	97050	1
04:30.4	97348	1
04:31.2	97644	1
04:32.0	97936	1
04:32.9	98228	1
04:33.6	98508	1
04:34.4	98789	1
04:35.2	99084	1
04:36.1	99382	1
04:36.6	99579	0
04:37.6	99930	1
04:38.4	100218	1
04:39.2	100496	1
04:39.9	100781	1
04:40.8	101071	1
04:41.6	101361	1
04:42.4	101653	1
04:43.2	101941	1
04:44.0	102234	1
04:44.8	102516	1
04:45.5	102793	1
04:46.3	103074	1
04:47.1	103371	1
04:48.0	103669	1
04:48.8	103964	1
04:49.6	104261	1
04:50.4	104545	1
04:51.2	104830	1
04:52.0	105118	1
04:52.8	105407	1
04:53.6	105707	1
04:54.5	106015	1
04:55.3	106314	1
04:56.1	106600	1
04:56.9	106882	1
04:57.7	107159	1
04:58.5	107453	1
04:59.3	107750	1
05:00.1	108045	1
05:00.9	108342	1
05:01.8	108643	1
05:02.6	108926	1
05:03.3	109199	1
05:04.1	109486	1
05:04.9	109772	1
05:05.8	110076	1
05:06.6	110374	1
05:07.4	110673	1
05:08.2	110963	1
05:09.0	111244	1
05:09.8	111524	1
05:10.6	111810	1
05:11.4	112108	1
05:12.2	112405	1
05:13.1	112710	1
05:13.9	113000	1
05:14.7	113281	1
05:15.5	113562	1
05:16.2	113850	1
05:17.1	114142	1
05:17.9	114428	1
05:18.7	114716	1
05:19.4	115000	1
05:20.2	115280	1
05:21.0	115547	1
05:21.7	115815	1
05:22.5	116084	1
05:23.2	116369	1
05:24.0	116654	1
05:24.8	116939	1
05:25.6	117213	1
05:26.4	117494	1
05:27.1	117766	1
05:27.9	118044	1
05:28.7	118323	1
05:29.5	118607	1
05:30.3	118911	1
05:31.2	119215	1
05:32.0	119509	1
05:32.8	119791	1
05:33.5	120077	1
05:34.4	120376	1
05:35.2	120676	1
05:36.1	120990	1
05:36.9	121300	1
05:37.8	121604	1
05:38.6	121889	1
05:39.4	122170	1
05:40.2	122460	1
05:41.0	122750	1
05:41.8	123050	1
05:42.7	123360	1
05:43.5	123664	1
05:44.3	123936	1
05:45.1	124221	1
05:45.9	124507	1
05:46.6	124775	1
05:47.4	125060	1
05:48.2	125355	1
05:49.0	125648	1
05:49.8	125926	1
05:50.6	126203	1
05:51.3	126476	1
05:52.1	126746	1
05:52.8	127025	1
05:53.6	127313	1
05:54.5	127603	1
05:55.3	127892	1
05:55.8	128085	0
05:56.7	128423	1
05:57.5	128698	1
05:58.2	128958	1
05:59.0	129230	1
05:59.8	129519	1
06:00.6	129798	1
06:01.3	130057	1
06:02.0	130318	1
06:02.7	130568	1
06:03.4	130818	1
06:04.1	131073	1
06:04.8	131326	1
06:05.5	131584	1
06:06.3	131851	1
06:07.0	132122	1
06:07.7	132381	1
06:08.4	132629	1
06:09.1	132883	1
06:09.8	133132	1
06:10.5	133390	1
06:11.3	133662	1
06:12.0	133933	1
06:12.8	134197	1
06:13.5	134463	1
06:14.3	134737	1
06:15.0	134990	1
06:15.7	135243	1
06:16.4	135504	1
06:17.2	135780	1
06:17.9	136061	1
06:18.8	136350	1
06:19.5	136630	1
06:20.3	136899	1
06:21.0	137170	1
06:21.8	137449	1
06:22.6	137729	1
06:23.4	138008	1
06:24.2	138304	1
06:25.0	138598	1
06:25.8	138888	1
06:26.6	139164	1
06:27.3	139440	1
06:28.1	139719	1
06:28.9	140009	1
06:29.7	140302	1
06:30.6	140599	1
06:31.3	140881	1
06:32.1	141152	1
06:32.8	141423	1
06:33.6	141684	1
06:34.3	141943	1
06:35.0	142207	1
06:35.8	142479	1
06:36.5	142747	1
06:37.3	143010	1
06:38.0	143265	1
06:38.7	143515	1
06:39.4	143766	1
06:40.1	144025	1
06:40.8	144286	1
06:41.5	144557	1
06:42.3	144832	1
06:43.1	145111	1
06:43.8	145381	1
06:44.6	145647	1
06:45.3	145902	1
06:46.0	146170	1
06:46.8	146445	1
06:47.6	146737	1
06:48.4	147013	1
06:49.1	147290	1
06:49.9	147565	1
06:50.6	147832	1
06:51.4	148099	1
06:52.1	148363	1
06:52.9	148637	1
06:53.7	148916	1
06:54.5	149204	1
06:55.2	149488	1
06:56.0	149768	1
06:56.7	150030	1
06:57.5	150303	1
06:58.3	150575	1
06:59.0	150849	1
06:59.8	151122	1
07:00.6	151407	1
07:01.4	151700	1
07:02.2	151974	1
07:02.9	152237	1
07:03.6	152510	1
07:04.4	152781	1
07:05.2	153067	1
07:06.0	153362	1
07:06.8	153644	1
07:07.6	153922	1
07:08.3	154193	1
07:09.1	154470	1
07:09.8	154741	1
07:10.6	155009	1
07:11.4	155291	1
07:12.2	155588	1
07:13.0	155865	1
07:13.7	156132	1
07:14.4	156395	1
07:15.1	156648	1
07:15.8	156906	1
07:16.6	157168	1
07:17.3	157430	1
07:18.0	157695	1
07:18.8	157960	1
07:19.5	158233	1
07:20.2	158489	1
07:20.9	158730	1
07:21.6	158974	1
07:22.3	159225	1
07:23.0	159479	1
07:23.7	159738	1
07:24.4	160001	1
07:25.2	160260	1
07:25.9	160507	1
07:26.5	160755	1
07:27.2	161005	1
07:27.9	161254	1
07:28.6	161499	1
07:29.3	161764	1
07:30.1	162035	1
07:30.9	162308	1
07:31.6	162573	1
07:32.3	162835	1
07:33.0	163093	1
07:33.8	163362	1
07:34.5	163629	1
07:35.3	163899	1
07:36.1	164182	1
07:36.8	164461	1
07:37.6	164731	1
07:38.3	164991	1
07:39.0	165246	1
07:39.7	165499	1
07:40.4	165756	1
07:41.2	166032	1
07:41.9	166301	1
07:42.7	166570	1
07:43.4	166841	1
07:44.2	167111	1
07:44.9	167371	1
07:45.7	167641	1
07:46.4	167912	1
07:47.2	168191	1
07:48.0	168484	1
07:48.8	168784	1
07:49.6	169074	1
07:50.4	169349	1
07:51.2	169629	1
07:52.0	169907	1
07:52.8	170201	1
07:53.6	170495	1
07:54.2	170719	0
07:55.2	171074	1
07:56.0	171371	1
07:56.8	171652	1
07:57.6	171921	1
07:58.3	172199	1
07:59.1	172481	1
07:59.9	172776	1
08:00.7	173067	1
08:01.5	173351	1
08:02.3	173629	1
08:03.1	173907	1
08:03.8	174176	1
08:04.6	174451	1
08:05.4	174737	1
08:06.2	175023	1
08:07.0	175323	1
08:07.8	175608	1
08:08.5	175877	1
08:09.3	176145	1
08:10.1	176427	1
08:10.8	176698	1
08:11.6	176975	1
08:12.4	177248	1
08:13.1	177523	1
08:13.9	177797	1
08:14.6	178059	1
08:15.3	178316	1
08:16.1	178578	1
08:16.8	178841	1
08:17.5	179117	1
08:18.3	179388	1
08:19.1	179662	1
08:19.8	179927	1
08:20.5	180182	1
08:21.2	180443	1
08:22.0	180705	1
08:22.7	180964	1
08:23.4	181236	1
08:24.2	181523	1
08:25.0	181811	1
08:25.8	182084	1
08:26.5	182353	1
08:27.3	182624	1
08:28.0	182896	1
08:28.8	183181	1
08:29.7	183475	1
08:30.5	183778	1
08:31.3	184071	1
08:32.1	184361	1
08:32.9	184649	1
08:33.7	184933	1
08:34.5	185213	1
08:35.3	185510	1
08:36.2	185828	1
08:37.0	186137	1
08:37.9	186428	1
08:38.7	186717	1
08:39.5	187005	1
08:40.3	187291	1
08:41.0	187577	1
08:41.9	187872	1
08:42.7	188179	1
08:43.6	188481	1
08:44.3	188763	1
08:45.1	189043	1
08:45.9	189330	1
08:46.7	189624	1
08:47.6	189929	1
08:48.4	190228	1
08:49.2	190529	1
08:50.1	190820	1
08:50.9	191112	1
08:51.7	191395	1
08:52.4	191674	1
08:53.3	191977	1
08:54.1	192281	1
08:54.9	192575	1
08:55.7	192862	1
08:56.5	193146	1
08:57.3	193423	1
08:58.1	193703	1
08:58.9	193994	1
08:59.7	194281	1
09:00.5	194574	1
09:01.3	194868	1
09:02.1	195156	1
09:02.9	195426	1
09:03.6	195701	1
09:04.4	195978	1
09:05.2	196268	1
09:06.0	196560	1
09:06.8	196847	1
09:07.6	197132	1
09:08.4	197414	1
09:09.1	197685	1
09:09.9	197950	1
09:10.6	198224	1
09:11.4	198504	1
09:12.2	198791	1
09:13.0	199075	1
09:13.8	199353	1
09:14.5	199619	1
09:15.3	199894	1
09:16.0	200161	1
09:16.8	200434	1
09:17.5	200714	1
09:18.3	200993	1
09:19.1	201271	1
09:19.8	201545	1
09:20.6	201806	1
09:21.3	202067	1
09:22.1	202339	1
09:22.8	202614	1
09:23.6	202896	1
09:24.4	203182	1
09:25.2	203468	1
09:25.9	203741	1
09:26.7	204021	1
09:27.5	204299	1
09:28.3	204574	1
09:29.0	204854	1
09:29.9	205158	1
09:30.7	205459	1
09:31.5	205737	1
09:32.3	206016	1
09:33.0	206288	1
09:33.8	206567	1
09:34.6	206844	1
09:35.4	207130	1
09:36.2	207421	1
09:37.0	207724	1
09:37.8	208004	1
09:38.5	208277	1
09:39.3	208548	1
09:40.1	208822	1
09:40.8	209100	1
09:41.6	209392	1
09:42.5	209683	1
09:43.3	209973	1
09:44.0	210256	1
09:44.8	210534	1
09:45.6	210809	1
09:46.3	211085	1
09:47.1	211364	1
09:47.9	211654	1
09:48.8	211951	1
09:49.5	212228	1
09:50.3	212502	1
09:51.0	212777	1
09:51.8	213058	1
09:52.6	213326	1
09:53.4	213606	1
09:54.2	213894	1
09:54.9	214181	1
09:55.7	214465	1
09:56.5	214738	1
09:57.2	215005	1
09:58.0	215280	1
09:58.8	215563	1
09:59.6	215850	1
10:00.4	216141	1
10:01.2	216431	1
10:02.0	216710	1
10:02.8	216990	1
10:03.5	217268	1
10:04.3	217547	1
10:05.1	217824	1
10:05.9	218122	1
10:06.7	218416	1
10:07.5	218703	1
10:08.3	218972	1
10:09.0	219246	1
10:09.8	219529	1
10:10.6	219813	1
10:11.4	220098	1
10:12.2	220391	1
10:13.0	220691	1
10:13.8	220977	1
10:14.6	221252	1
10:15.4	221527	1
10:16.1	221804	1
10:16.9	222081	1
10:17.7	222375	1
10:18.5	222666	1
10:19.3	222951	1
10:20.1	223227	1
10:20.9	223507	1
10:21.6	223783	1
10:22.4	224047	1
10:23.1	224328	1
10:23.9	224621	1
10:24.8	224915	1
10:25.5	225195	1
10:26.3	225472	1
10:27.1	225743	1
10:27.8	226024	1
10:28.6	226296	1
10:29.4	226573	1
10:30.2	226863	1
10:31.0	227144	1
10:31.7	227427	1
10:32.5	227702	1
10:33.3	227975	1
10:34.0	228238	1
10:34.8	228516	1
10:35.6	228808	1
10:36.4	229094	1
10:37.2	229376	1
10:37.9	229660	1
10:38.7	229936	1
10:39.5	230214	1
10:40.2	230485	1
10:41.0	230761	1
10:41.8	231058	1
10:42.7	231357	1
10:43.4	231638	1
10:44.2	231913	1
10:45.0	232190	1
10:45.7	232459	1
10:46.5	232732	1
10:47.3	233016	1
10:48.1	233301	1
10:48.9	233588	1
10:49.7	233875	1
10:50.4	234151	1
10:51.2	234415	1
10:51.9	234684	1
10:52.7	234959	1
10:53.5	235249	1
10:54.3	235547	1
10:55.1	235828	1
10:55.9	236108	1
10:56.6	236390	1
10:57.4	236664	1
10:58.1	236927	1
10:58.9	237205	1
10:59.7	237495	1
11:00.5	237783	1
11:01.3	238070	1
11:02.1	238343	1
11:02.8	238610	1
11:03.6	238884	1
11:04.3	239157	1
11:05.1	239433	1
11:05.9	239717	1
11:06.7	239996	1
11:07.4	240266	1
11:08.2	240541	1
11:08.9	240809	1
11:09.6	241065	1
11:10.3	241318	1
11:11.1	241588	1
11:11.8	241855	1
11:12.5	242114	1
11:13.3	242373	1
11:14.0	242632	1
11:14.7	242879	1
11:15.4	243132	1
11:16.1	243388	1
11:16.8	243643	1
11:17.5	243908	1
11:18.3	244191	1
11:19.1	244461	1
11:19.8	244729	1
11:20.5	244984	1
11:21.2	245246	1
11:22.0	245515	1
11:22.8	245791	1
11:23.5	246065	1
11:24.3	246352	1
11:25.1	246647	1
11:25.9	246935	1
11:26.7	247201	1
11:27.4	247469	1
11:28.2	247742	1
11:28.9	248017	1
11:29.7	248300	1
11:30.5	248586	1
11:31.3	248878	1
11:32.1	249158	1
11:32.9	249433	1
11:33.6	249706	1
11:34.4	249988	1
11:35.2	250273	1
11:36.0	250558	1
11:36.8	250858	1
11:37.7	251160	1
11:38.4	251441	1
11:39.2	251710	1
11:40.0	251994	1
11:40.8	252285	1
11:41.6	252584	1
11:42.4	252868	1
11:43.2	253159	1
11:44.0	253456	1
11:44.8	253741	1
11:45.6	254010	1
11:46.3	254282	1
11:47.2	254585	1
11:48.0	254891	1
11:48.8	255170	1
11:49.6	255453	1
11:50.4	255738	1
11:51.2	256027	1
11:51.9	256295	1
11:52.7	256572	1
11:53.5	256860	1
11:54.3	257157	1
11:55.1	257439	1
11:55.9	257710	1
11:56.6	257966	1
11:57.3	258226	1
11:58.0	258478	1
11:58.7	258737	1
11:59.5	259005	1
12:00.2	259280	1
12:00.9	259541	1
12:01.7	259811	1
12:02.4	260076	1
12:03.2	260334	1
12:03.8	260585	1
12:04.6	260852	1
12:05.4	261132	1
12:06.2	261417	1
12:06.9	261690	1
12:07.7	261968	1
12:08.4	262241	1
12:09.2	262516	1
12:10.0	262789	1
12:10.7	263062	1
12:11.5	263350	1
12:12.3	263641	1
12:13.1	263931	1
12:13.9	264217	1
12:14.7	264499	1
12:15.5	264772	1
12:16.3	265062	1
12:17.1	265354	1
12:17.9	265651	1
12:18.7	265947	1
12:19.6	266238	1
12:20.4	266528	1
12:21.2	266815	1
12:21.9	267099	1
12:22.7	267375	1
12:23.6	267679	1
12:24.4	267978	1
12:25.2	268260	1
12:26.0	268544	1
12:26.7	268823	1
12:27.5	269102	1
12:28.3	269384	1
12:29.1	269669	1
12:29.9	269960	1
12:30.7	270257	1
12:31.5	270550	1
12:32.3	270821	1
12:33.0	271094	1
12:33.8	271370	1
12:34.6	271656	1
12:35.4	271952	1
12:36.2	272244	1
12:37.0	272533	1
12:37.9	272839	1
12:38.7	273123	1
12:39.4	273394	1
12:40.2	273675	1
12:41.0	273967	1
12:41.8	274264	1
12:42.7	274560	1
12:43.5	274852	1
12:44.3	275131	1
12:45.0	275403	1
12:45.8	275671	1
12:46.5	275949	1
12:47.3	276235	1
12:48.1	276516	1
12:48.9	276804	1
12:49.7	277102	1
12:50.5	277388	1
12:51.2	277649	1
12:52.0	277923	1
12:52.8	278211	1
12:53.7	278518	1
12:54.5	278814	1
12:55.3	279098	1
12:56.1	279382	1
12:56.6	279576	0
12:57.5	279918	1
12:58.4	280209	1
12:59.2	280511	1
13:00.0	280814	1
13:00.9	281110	1
13:01.7	281402	1
13:02.5	281682	1
13:03.2	281955	1
13:04.0	282232	1
13:04.8	282513	1
13:05.6	282801	1
13:06.4	283096	1
13:07.2	283389	1
13:08.0	283672	1
13:08.7	283944	1
13:09.5	284216	1
13:10.3	284491	1
13:11.1	284778	1
13:11.9	285073	1
13:12.7	285363	1
13:13.5	285653	1
13:14.3	285936	1
13:15.0	286210	1
13:15.8	286486	1
13:16.6	286763	1
13:17.4	287051	1
13:18.2	287353	1
13:19.0	287655	1
13:19.8	287944	1
13:20.6	288225	1
13:21.4	288506	1
13:22.2	288792	1
13:23.0	289076	1
13:23.8	289373	1
13:24.6	289667	1
13:25.5	289971	1
13:26.3	290257	1
13:27.0	290538	1
13:27.8	290813	1
13:28.6	291109	1
13:29.5	291407	1
13:30.3	291696	1
13:31.1	291990	1
13:31.9	292281	1
13:32.7	292566	1
13:33.5	292844	1
13:34.2	293123	1
13:35.0	293411	1
13:35.9	293712	1
13:36.7	294011	1
13:37.5	294296	1
13:38.3	294581	1
13:39.0	294857	1
13:39.8	295142	1
13:40.6	295421	1
13:41.4	295717	1
13:42.3	296013	1
13:43.1	296319	1
13:43.9	296611	1
13:44.7	296889	1
13:45.5	297169	1
13:46.2	297450	1
13:47.0	297738	1
13:47.9	298032	1
13:48.7	298334	1
13:49.5	298627	1
13:50.3	298920	1
13:51.1	299206	1
13:51.9	299483	1
13:52.7	299756	1
13:53.5	300051	1
13:54.3	300360	1
13:55.2	300662	1
13:55.9	300940	1
13:56.7	301210	1
13:57.5	301494	1
13:58.3	301781	1
13:59.1	302063	1
13:59.9	302347	1
14:00.7	302644	1
14:01.5	302947	1
14:02.3	303240	1
14:03.1	303503	1
14:03.8	303773	1
14:04.6	304065	1
14:05.4	304361	1
14:06.2	304639	1
14:07.0	304923	1
14:07.8	305211	1
14:08.6	305497	1
14:09.2	305709	0
14:10.1	306035	1
14:10.9	306337	1
14:11.8	306641	1
14:12.6	306943	1
14:13.4	307234	1
14:14.2	307514	1
14:14.8	307745	0
14:15.7	308062	1
14:16.5	308349	1
14:17.3	308625	1
14:18.1	308912	1
14:18.9	309216	1
14:19.8	309515	1
14:20.5	309780	1
14:21.3	310052	1
14:22.0	310332	1
14:22.8	310626	1
14:23.6	310914	1
14:24.4	311199	1
14:25.2	311488	1
14:26.1	311783	1
14:26.8	312062	1
14:27.6	312327	1
14:28.3	312605	1
14:29.0	312825	0
14:30.0	313193	1
14:30.9	313508	1
14:31.7	313808	1
14:32.5	314090	1
14:33.3	314373	1
14:34.1	314664	1
14:34.9	314952	1
14:35.7	315245	1
14:36.5	315541	1
14:37.3	315843	1
14:38.2	316136	1
14:38.9	316415	1
14:39.7	316693	1
14:40.5	316980	1
14:41.3	317266	1
14:42.1	317560	1
14:42.7	317785	0
14:43.7	318145	1
14:44.6	318438	1
14:45.4	318729	1
14:46.1	319011	1
14:46.7	319223	0
14:47.7	319586	1
14:48.6	319904	1
14:49.5	320205	1
14:50.3	320493	1
14:51.1	320786	1
14:51.9	321072	1
14:52.7	321371	1
14:53.5	321663	1
14:54.4	321968	1
14:55.2	322275	1
14:56.0	322573	1
14:56.8	322856	1
14:57.6	323138	1
14:58.4	323425	1
14:59.3	323730	1
15:00.1	324044	1
15:00.9	324340	1
15:01.8	324641	1
15:02.6	324929	1
15:03.4	325215	1
15:04.2	325495	1
15:04.9	325782	1
15:05.8	326088	1
15:06.7	326395	1
15:07.5	326698	1
15:08.3	326986	1
15:09.1	327276	1
15:09.9	327566	1
15:10.7	327858	1
15:11.5	328149	1
15:12.4	328452	1
15:13.2	328753	1
15:14.0	329056	1
15:14.8	329339	1
15:15.6	329619	1
15:16.4	329912	1
15:17.3	330216	1
15:18.1	330524	1
15:18.9	330819	1
15:19.8	331124	1
15:20.6	331411	1
15:21.4	331704	1
15:22.2	331989	1
15:23.0	332279	1
15:23.9	332588	1
15:24.7	332897	1
15:25.6	333199	1
15:26.3	333479	1
15:27.1	333768	1
15:27.9	334056	1
15:28.7	334348	1
15:29.6	334643	1
15:30.4	334943	1
15:31.2	335248	1
15:32.1	335543	1
15:32.8	335823	1
15:33.6	336100	1
15:34.4	336385	1
15:35.2	336679	1
15:36.1	336979	1
15:36.9	337281	1
15:37.7	337571	1
15:38.5	337862	1
15:39.3	338145	1
15:40.1	338432	1
15:40.9	338720	1
15:41.7	339025	1
15:42.6	339327	1
15:43.4	339634	1
15:44.2	339926	1
15:45.0	340205	1
15:45.8	340492	1
15:46.6	340780	1
15:47.4	341075	1
15:48.3	341379	1
15:49.1	341684	1
15:49.9	341974	1
15:50.7	342266	1
15:51.5	342547	1
15:52.3	342822	1
15:53.1	343115	1
15:53.9	343409	1
15:54.7	343705	1
15:55.5	343995	1
15:56.3	344279	1
15:57.1	344556	1
15:57.9	344843	1
15:58.7	345129	1
15:59.5	345415	1
16:00.3	345722	1
16:01.2	346017	1
16:02.0	346308	1
16:02.8	346596	1
16:03.3	346804	0
16:04.3	347147	1
16:05.1	347454	1
16:06.0	347759	1
16:06.8	348063	1
16:07.7	348367	1
16:08.5	348658	1
16:09.3	348934	1
16:10.1	349221	1
16:10.8	349502	1
16:11.7	349804	1
16:12.5	350112	1
16:13.4	350410	1
16:14.1	350692	1
16:14.9	350980	1
16:15.7	351265	1
16:16.3	351481	0
16:17.3	351821	1
16:18.1	352115	1
16:18.9	352416	1
16:19.8	352711	1
16:20.5	352986	1
16:21.3	353257	1
16:22.1	353547	1
16:22.9	353832	1
16:23.7	354128	1
16:24.5	354426	1
16:25.3	354717	1
16:26.2	355015	1
16:26.9	355302	1
16:27.7	355579	1
16:28.5	355858	1
16:29.3	356165	1
16:30.2	356463	1
16:31.0	356758	1
16:31.8	357045	1
16:32.6	357327	1
16:33.4	357610	1
16:34.2	357900	1
16:35.0	358186	1
16:35.8	358482	1
16:36.6	358788	1
16:37.5	359086	1
16:38.2	359365	1
16:39.0	359634	1
16:39.7	359903	1
16:40.5	360182	1
16:41.3	360471	1
16:42.1	360763	1
16:42.9	361051	1
16:43.7	361343	1
16:44.5	361625	1
16:45.3	361894	1
16:46.0	362162	1
16:46.8	362451	1
16:47.6	362732	1
16:48.4	363026	1
16:49.2	363318	1
16:50.0	363606	1
16:50.8	363878	1
16:51.5	364158	1
16:52.4	364446	1
16:53.1	364730	1
16:53.9	365022	1
16:54.8	365330	1
16:55.7	365640	1
16:56.4	365914	1
16:57.2	366191	1
16:58.0	366482	1
16:58.8	366778	1
16:59.6	367063	1
17:00.5	367363	1
17:01.3	367674	1
17:02.1	367960	1
17:02.9	368247	1
17:03.7	368531	1
17:04.5	368824	1
17:05.3	369109	1
17:06.1	369410	1
17:07.0	369714	1
17:07.8	370010	1
17:08.6	370279	1
17:09.3	370557	1
17:10.1	370842	1
17:10.9	371131	1
17:11.7	371406	1
17:12.5	371703	1
17:13.4	372007	1
17:14.2	372299	1
17:14.9	372557	1
17:15.7	372834	1
17:16.5	373123	1
17:17.3	373428	1
17:18.1	373712	1
17:18.9	374000	1
17:19.7	374303	1
17:20.5	374595	1
17:21.3	374855	1
17:22.0	375124	1
17:22.8	375412	1
17:23.7	375715	1
17:24.4	375998	1
17:25.2	376287	1
17:26.0	376576	1
17:26.8	376861	1
17:27.4	377081	0
17:28.3	377404	1
17:29.2	377700	1
17:30.0	378005	1
17:30.9	378308	1
17:31.7	378608	1
17:32.5	378886	1
17:33.2	379159	1
17:34.0	379439	1
17:34.8	379731	1
17:35.6	380023	1
17:36.4	380312	1
17:37.3	380610	1
17:38.0	380898	1
17:38.8	381173	1
17:39.6	381452	1
17:40.3	381724	1
17:41.2	382014	1
17:42.0	382308	1
17:42.8	382607	1
17:43.6	382895	1
17:44.4	383183	1
17:45.2	383457	1
17:46.0	383743	1
17:46.7	384027	1
17:47.5	384317	1
17:48.4	384614	1
17:49.2	384915	1
17:50.0	385205	1
17:50.8	385487	1
17:51.6	385768	1
17:52.4	386050	1
17:53.2	386349	1
17:54.0	386649	1
17:54.8	386941	1
17:55.7	387241	1
17:56.5	387533	1
17:57.3	387811	1
17:58.0	388084	1
17:58.8	388373	1
17:59.6	388671	1
18:00.5	388979	1
18:01.3	389277	1
18:02.1	389563	1
18:02.9	389860	1
18:03.7	390149	1
18:04.5	390434	1
18:05.4	390730	1
18:06.2	391039	1
18:07.1	391344	1
18:07.9	391641	1
18:08.7	391924	1
18:09.5	392204	1
18:10.3	392493	1
18:11.1	392780	1
18:11.9	393077	1
18:12.7	393377	1
18:13.5	393674	1
18:14.3	393957	1
18:15.1	394243	1
18:15.9	394519	1
18:16.7	394801	1
18:17.5	395096	1
18:18.3	395401	1
18:19.2	395697	1
18:20.0	395989	1
18:20.7	396268	1
18:21.5	396553	1
18:22.3	396845	1
18:23.1	397133	1
18:23.7	397335	0
18:24.7	397704	1
18:25.6	398007	1
18:26.4	398294	1
18:27.1	398569	1
18:27.9	398853	1
18:28.7	399139	1
18:29.5	399436	1
18:30.4	399730	1
18:31.2	400023	1
18:32.0	400321	1
18:32.8	400599	1
18:33.5	400877	1
18:34.3	401163	1
18:35.1	401453	1
18:36.0	401757	1
18:36.8	402061	1
18:37.7	402361	1
18:38.5	402646	1
18:39.3	402933	1
18:40.0	403215	1
18:40.9	403509	1
18:41.7	403804	1
18:42.5	404100	1
18:43.3	404403	1
18:44.2	404697	1
18:44.9	404980	1
18:45.7	405255	1
18:46.5	405543	1
18:47.3	405836	1
18:48.1	406131	1
18:49.0	406425	1
18:49.8	406715	1
18:50.6	407005	1
18:51.4	407288	1
18:52.1	407559	1
18:52.9	407849	1
18:53.8	408151	1
18:54.6	408452	1
18:55.4	408746	1
18:56.2	409030	1
18:57.0	409314	1
18:57.8	409597	1
18:58.6	409881	1
18:59.4	410177	1
19:00.2	410477	1
19:01.1	410781	1
19:01.9	411071	1
19:02.6	411352	1
19:03.4	411632	1
19:04.2	411915	1
19:05.0	412206	1
19:05.9	412512	1
19:06.7	412816	1
19:07.5	413109	1
19:08.3	413402	1
19:09.1	413692	1
19:09.9	413969	1
19:10.7	414249	1
19:11.5	414541	1
19:12.4	414847	1
19:13.2	415143	1
19:14.0	415430	1
19:14.7	415703	1
19:15.5	415994	1
19:16.3	416275	1
19:17.1	416555	1
19:17.9	416849	1
19:18.8	417152	1
19:19.6	417445	1
19:20.4	417728	1
19:21.1	418006	1
19:21.9	418283	1
19:22.7	418577	1
19:23.5	418866	1
19:24.3	419155	1
19:25.1	419453	1
19:26.0	419745	1
19:26.7	420022	1
19:27.5	420302	1
19:28.3	420583	1
19:29.1	420873	1
19:29.9	421173	1
19:30.8	421474	1
19:31.6	421766	1
19:32.2	421994	0
19:33.1	422320	1
19:33.9	422603	1
19:34.5	422818	0
19:35.5	423164	1
19:36.3	423462	1
19:37.1	423767	1
19:38.0	424064	1
19:38.7	424339	1
19:39.5	424616	1
19:40.3	424893	1
19:41.1	425188	1
19:41.9	425491	1
19:42.7	425788	1
19:43.6	426078	1
19:44.4	426380	1
19:45.2	426661	1
19:45.9	426938	1
19:46.7	427225	1
19:47.6	427523	1
19:48.4	427827	1
19:49.2	428129	1
19:50.0	428413	1
19:50.8	428698	1
19:51.6	428992	1
19:52.4	429276	1
19:53.2	429558	1
19:54.1	429867	1
19:54.9	430165	1
19:55.8	430470	1
19:56.5	430754	1
19:57.3	431034	1
19:58.1	431315	1
19:58.9	431615	1
19:59.7	431910	1
20:00.6	432209	1
20:01.4	432509	1
20:02.2	432799	1
20:03.0	433082	1
20:03.8	433364	1
20:04.6	433648	1
20:05.1	433841	0
20:06.1	434211	1
20:07.0	434513	1
20:07.8	434810	1
20:08.6	435096	1
20:09.4	435370	1
20:10.2	435658	1
20:11.0	435951	1
20:11.5	436149	0
20:12.5	436512	1
20:13.4	436819	1
20:14.2	437118	1
20:15.0	437400	1
20:15.8	437682	1
20:16.6	437965	1
20:17.4	438268	1
20:18.3	438570	1
20:19.1	438865	1
20:19.9	439158	1
20:20.7	439454	1
20:21.5	439740	1
20:22.3	440022	1
20:23.1	440312	1
20:23.9	440622	1
20:24.8	440934	1
20:25.6	441230	1
20:26.4	441518	1
20:27.3	441814	1
20:28.1	442109	1
20:28.9	442406	1
20:29.5	442623	0
20:30.5	442992	1
20:31.4	443304	1
20:32.2	443606	1
20:33.0	443888	1
20:33.8	444175	1
20:34.6	444473	1
20:35.3	444705	0
20:36.3	445060	1
20:37.1	445362	1
20:37.9	445658	1
20:38.7	445948	1
20:39.5	446226	1
20:40.3	446507	1
20:41.1	446800	1
20:42.0	447104	1
20:42.8	447402	1
20:43.6	447695	1
20:44.4	447980	1
20:45.2	448264	1
20:46.0	448548	1
20:46.8	448834	1
20:47.6	449137	1
20:48.4	449441	1
20:49.3	449748	1
20:50.1	450038	1
20:50.9	450325	1
20:51.7	450607	1
20:52.5	450895	1
20:53.3	451193	1
20:54.2	451501	1
20:55.0	451805	1
20:55.8	452101	1
20:56.6	452390	1
20:57.4	452678	1
20:58.2	452959	1
20:59.0	453250	1
20:59.8	453545	1
21:00.7	453852	1
21:01.5	454154	1
21:02.3	454444	1
21:02.9	454651	0
21:03.9	454997	1
21:04.7	455293	1
21:05.5	455588	1
21:06.4	455888	1
21:07.2	456189	1
21:08.0	456487	1
21:08.8	456771	1
21:09.6	457045	1
21:10.4	457333	1
21:11.2	457634	1
21:12.0	457937	1
21:12.7	458168	0
21:13.7	458524	1
21:14.5	458816	1
21:15.3	459103	1
21:16.1	459380	1
21:16.8	459664	1
21:17.7	459966	1
21:18.5	460275	1
21:19.4	460571	1
21:20.2	460858	1
21:21.0	461148	1
21:21.8	461433	1
21:22.6	461721	1
21:23.4	462014	1
21:24.2	462314	1
21:25.1	462621	1
21:25.9	462919	1
21:26.7	463197	1
21:27.4	463481	1
21:28.2	463765	1
21:29.0	464049	1
21:29.9	464361	1
21:30.7	464664	1
21:31.6	464960	1
21:32.4	465257	1
21:33.2	465538	1
21:33.9	465820	1
21:34.7	466104	1
21:35.6	466404	1
21:36.4	466707	1
21:37.2	467010	1
21:38.1	467308	1
21:38.9	467589	1
21:39.7	467878	1
21:40.5	468164	1
21:41.3	468459	1
21:42.1	468762	1
21:43.0	469065	1
21:43.8	469363	1
21:44.6	469660	1
21:45.4	469942	1
21:46.2	470230	1
21:47.0	470530	1
21:47.9	470837	1
21:48.7	471139	1
21:49.6	471444	1
21:50.4	471727	1
21:51.2	472019	1
21:52.0	472304	1
21:52.7	472589	1
21:53.6	472887	1
21:54.4	473201	1
21:55.3	473498	1
21:56.1	473792	1
21:56.9	474074	1
21:57.7	474362	1
21:58.5	474652	1
21:59.3	474942	1
22:00.1	475237	1
22:01.0	475547	1
22:01.8	475851	1
22:02.6	476136	1
22:03.4	476417	1
22:04.2	476705	1
22:05.0	477000	1
22:05.9	477307	1
22:06.7	477604	1
22:07.5	477898	1
22:08.3	478195	1
22:09.1	478480	1
22:09.9	478757	1
22:10.7	479040	1
22:11.5	479332	1
22:12.3	479633	1
22:13.1	479931	1
22:13.9	480218	1
22:14.7	480494	1
22:15.5	480779	1
22:16.3	481057	1
22:17.1	481340	1
22:17.9	481641	1
22:18.7	481941	1
22:19.6	482239	1
22:20.3	482525	1
22:21.1	482801	1
22:21.9	483071	1
22:22.6	483350	1
22:23.4	483634	1
22:24.3	483930	1
22:25.1	484220	1
22:25.9	484507	1
22:26.6	484786	1
22:27.4	485073	1
22:28.2	485352	1
22:29.0	485641	1
22:29.8	485939	1
22:30.7	486253	1
22:31.5	486556	1
22:32.3	486844	1
22:33.1	487129	1
22:34.0	487423	1
22:34.8	487719	1
22:35.6	488018	1
22:36.4	488320	1
22:37.3	488635	1
22:38.1	488931	1
22:38.9	489214	1
22:39.7	489497	1
22:40.5	489788	1
22:41.4	490090	1
22:42.2	490393	1
22:43.0	490695	1
22:43.9	490994	1
22:44.7	491287	1
22:45.5	491570	1
22:46.3	491850	1
22:47.1	492145	1
22:47.9	492445	1
22:48.7	492750	1
22:49.6	493046	1
22:50.4	493340	1
22:51.2	493623	1
22:52.0	493914	1
22:52.8	494199	1
22:53.6	494491	1
22:54.4	494789	1
22:55.2	495085	1
22:56.0	495370	1
22:56.8	495649	1
22:57.6	495924	1
22:58.3	496201	1
22:59.2	496499	1
22:59.8	496712	0
23:00.8	497074	1
23:01.6	497376	1
23:02.4	497664	1
23:03.2	497945	1
23:04.0	498230	1
23:04.8	498517	1
23:05.6	498812	1
23:06.4	499114	1
23:07.3	499417	1
23:08.1	499701	1
23:08.9	499987	1
23:09.6	500268	1
23:10.4	500549	1
23:11.2	500847	1
23:12.1	501145	1
23:12.9	501448	1
23:13.7	501745	1
23:14.6	502039	1
23:15.3	502316	1
23:16.1	502601	1
23:16.9	502888	1
23:17.8	503191	1
23:18.6	503496	1
23:19.4	503794	1
23:20.2	504080	1
23:21.0	504372	1
23:21.8	504654	1
23:22.6	504936	1
23:23.4	505227	1
23:24.2	505528	1
23:25.1	505830	1
23:25.9	506125	1
23:26.7	506398	1
23:27.4	506679	1
23:28.2	506969	1
23:29.0	507256	1
23:29.9	507552	1
23:30.7	507855	1
23:31.6	508159	1
23:32.4	508455	1
23:33.2	508744	1
23:33.9	509019	1
23:34.8	509319	1
23:35.6	509623	1
23:36.5	509923	1
23:37.3	510220	1
23:38.1	510520	1
23:38.9	510804	1
23:39.7	511093	1
23:40.5	511371	1
23:41.3	511660	1
23:42.1	511970	1
23:43.0	512277	1
23:43.8	512567	1
23:44.6	512851	1
23:45.4	513135	1
23:46.2	513424	1
23:47.0	513719	1
23:47.8	514014	1
23:48.7	514318	1
23:49.5	514628	1
23:50.3	514919	1
23:51.1	515194	1
23:51.9	515476	1
23:52.7	515762	1
23:53.5	516065	1
23:54.4	516371	1
23:55.2	516667	1
23:56.0	516970	1
23:56.9	517266	1
23:57.6	517553	1
23:58.4	517832	1
23:59.2	518127	1
24:00.1	518426	1
24:00.9	518734	1
24:01.7	519028	1
24:02.5	519307	1
24:03.3	519594	1
24:04.1	519882	1
24:04.9	520149	1
24:05.7	520463	1
24:06.6	520768	1
24:07.2	520982	0
24:08.2	521342	1
24:09.0	521627	1
24:09.8	521913	1
24:10.6	522209	1
24:11.4	522511	1
24:12.3	522815	1
24:13.1	523116	1
24:13.9	523416	1
24:14.7	523708	1
24:15.6	523999	1
24:16.3	524279	1
24:17.2	524577	1
24:18.0	524890	1
24:18.9	525198	1
24:19.7	525492	1
24:20.5	525780	1
24:21.3	526064	1
24:22.1	526355	1
24:22.9	526646	1
24:23.7	526941	1
24:24.6	527243	1
24:25.4	527549	1
24:26.2	527838	1
24:27.0	528118	1
24:27.8	528402	1
24:28.6	528689	1
24:29.4	528991	1
24:30.3	529293	1
24:31.1	529599	1
24:31.9	529897	1
24:32.8	530191	1
24:33.5	530471	1
24:34.3	530762	1
24:35.2	531057	1
24:36.0	531358	1
24:36.9	531668	1
24:37.7	531967	1
24:38.5	532257	1
24:39.3	532544	1
24:40.1	532828	1
24:40.9	533121	1
24:41.7	533416	1
24:42.6	533719	1
24:43.4	534012	1
24:44.2	534307	1
24:45.0	534592	1
24:45.8	534873	1
24:46.6	535161	1
24:47.4	535459	1
24:48.2	535768	1
24:49.1	536067	1
24:49.9	536364	1
24:50.7	536644	1
24:51.5	536930	1
24:52.3	537212	1
24:53.1	537505	1
24:53.9	537810	1
24:54.8	538115	1
24:55.6	538421	1
24:56.4	538707	1
24:57.2	538993	1
24:58.0	539278	1
24:58.8	539575	1
24:59.6	539874	1
25:00.5	540172	1
25:01.3	540472	1
25:02.1	540768	1
25:02.9	541052	1
25:03.7	541334	1
25:04.5	541616	1
25:05.3	541916	1
25:06.2	542226	1
25:07.0	542529	1
25:07.8	542825	1
25:08.7	543116	1
25:09.5	543407	1
25:10.2	543689	1
25:11.1	543983	1
25:11.9	544285	1
25:12.8	544590	1
25:13.6	544895	1
25:14.4	545182	1
25:15.2	545455	1
25:15.9	545741	1
25:16.7	546022	1
25:17.5	546306	1
25:18.3	546599	1
25:18.9	546792	0
25:20.0	547199	1
25:20.8	547482	1
25:21.6	547758	1
25:22.3	548032	1
25:23.2	548334	1
25:24.0	548632	1
25:24.8	548926	1
25:25.6	549217	1
25:26.4	549502	1
25:27.2	549784	1
25:28.0	550070	1
25:28.7	550348	1
25:29.6	550639	1
25:30.4	550952	1
25:31.3	551253	1
25:32.0	551532	1
25:32.8	551815	1
25:33.6	552096	1
25:34.4	552385	1
25:35.2	552680	1
25:36.0	552974	1
25:36.9	553282	1
25:37.7	553588	1
25:38.5	553876	1
25:39.3	554154	1
25:40.1	554439	1
25:40.9	554723	1
25:41.7	555026	1
25:42.6	555323	1
25:43.4	555613	1
25:44.2	555914	1
25:45.0	556203	1
25:45.8	556486	1
25:46.6	556765	1
25:47.4	557056	1
25:48.2	557361	1
25:49.1	557667	1
25:49.9	557962	1
25:50.7	558238	1
25:51.5	558527	1
25:52.3	558813	1
25:53.1	559102	1
25:53.9	559395	1
25:54.7	559695	1
25:55.5	559997	1
25:56.4	560295	1
25:57.2	560576	1
25:57.9	560846	1
25:58.7	561141	1
25:59.5	561435	1
26:00.4	561732	1
26:01.2	562019	1
26:02.0	562308	1
26:02.8	562591	1
26:03.4	562812	0
26:04.3	563141	1
26:05.1	563423	1
26:05.9	563731	1
26:06.7	564030	1
26:07.6	564320	1
26:08.3	564601	1
26:09.1	564883	1
26:09.9	565164	1
26:10.7	565452	1
26:11.5	565741	1
26:12.3	566041	1
26:12.9	566259	0
26:13.9	566615	1
26:14.7	566899	1
26:15.5	567185	1
26:16.1	567379	0
26:17.0	567721	1
26:17.9	568027	1
26:18.7	568326	1
26:19.5	568624	1
26:20.3	568919	1
26:21.1	569204	1
26:21.9	569482	1
26:22.7	569762	1
26:23.5	570058	1
26:24.4	570366	1
26:25.2	570668	1
26:26.0	570957	1
26:26.8	571246	1
26:27.6	571538	1
26:28.4	571831	1
26:29.2	572122	1
26:30.1	572428	1
26:30.9	572730	1
26:31.8	573040	1
26:32.6	573328	1
26:33.4	573608	1
26:34.1	573893	1
26:35.0	574193	1
26:35.6	574429	0
26:36.6	574786	1
26:37.5	575095	1
26:38.3	575387	1
26:39.1	575678	1
26:39.9	575959	1
26:40.7	576248	1
26:41.5	576551	1
26:42.4	576862	1
26:43.2	577162	1
26:44.0	577456	1
26:44.8	577741	1
26:45.6	578025	1
26:46.4	578310	1
26:47.2	578600	1
26:48.1	578901	1
26:48.9	579204	1
26:49.6	579448	0
26:50.5	579790	1
26:51.3	580074	1
26:52.1	580357	1
26:52.9	580648	1
26:53.7	580947	1
26:54.6	581246	1
26:55.4	581543	1
26:56.2	581834	1
26:57.0	582119	1
26:57.8	582395	1
26:58.5	582668	1
26:59.2	582919	1
27:00.1	583239	1
27:00.9	583539	1
27:01.7	583821	1
27:02.5	584097	1
27:03.2	584363	1
27:04.0	584635	1
27:04.7	584903	1
27:05.5	585175	1
27:06.3	585454	1
27:07.0	585731	1
27:07.8	586011	1
27:08.5	586275	1
27:09.2	586525	1
27:09.9	586771	1
27:10.6	587030	1
27:11.4	587299	1
27:12.1	587572	1
27:12.9	587843	1
27:13.6	588113	1
27:14.4	588377	1
27:15.1	588643	1
27:15.8	588905	1
27:16.6	589177	1
27:17.4	589454	1
27:18.2	589747	1
27:19.0	590040	1
27:19.8	590316	1
27:20.5	590588	1
27:21.3	590863	1
27:22.1	591143	1
27:22.8	591417	1
27:23.6	591706	1
27:24.4	591999	1
27:25.2	592288	1
27:26.0	592571	1
27:26.8	592853	1
27:27.4	593068	0
27:28.3	593387	1
27:29.1	593683	1
27:30.0	593990	1
27:30.8	594280	1
27:31.6	594563	1
27:32.4	594855	1
27:33.1	595127	1
27:33.9	595402	1
27:34.7	595690	1
27:35.5	595992	1
27:36.3	596278	1
27:37.2	596584	1
27:38.0	596879	1
27:38.7	597136	1
27:39.5	597402	1
27:40.2	597670	1
27:40.9	597925	1
27:41.6	598186	1
27:42.4	598458	1
27:43.1	598713	1
27:43.8	598969	1
27:44.5	599222	1
27:45.2	599468	1
27:45.8	599703	1
27:46.5	599952	1
27:47.3	600214	1
27:48.0	600483	1
27:48.7	600739	1
27:49.5	601011	1
27:50.2	601273	1
27:50.9	601537	1
27:51.7	601799	1
27:52.4	602064	1
27:53.1	602330	1
27:53.9	602610	1
27:54.7	602893	1
27:55.5	603179	1
27:56.3	603455	1
27:57.0	603722	1
27:57.7	603989	1
27:58.5	604277	1
27:59.3	604564	1
28:00.1	604844	1
28:01.0	605148	1
28:01.8	605459	1
28:02.6	605737	1
28:03.4	606008	1
28:04.1	606293	1
28:05.0	606587	1
28:05.8	606880	1
28:06.6	607178	1
28:07.4	607475	1
28:08.2	607766	1
28:09.0	608043	1
28:09.7	608309	1
28:10.5	608576	1
28:11.3	608853	1
28:12.0	609136	1
28:12.8	609425	1
28:13.7	609715	1
28:14.4	609987	1
28:15.2	610262	1
28:16.0	610544	1
28:16.7	610823	1
28:17.5	611108	1
28:18.3	611399	1
28:19.2	611695	1
28:20.0	611986	1
28:20.7	612263	1
28:21.5	612539	1
28:22.3	612819	1
28:23.1	613108	1
28:23.9	613399	1
28:24.7	613693	1
28:25.5	613983	1
28:26.3	614259	1
28:27.1	614539	1
28:27.8	614816	1
28:28.6	615089	1
28:29.4	615370	1
28:30.2	615676	1
28:31.0	615968	1
28:31.8	616250	1
28:32.6	616526	1
28:33.3	616803	1
28:34.1	617086	1
28:34.9	617366	1
28:35.7	617655	1
28:36.5	617949	1
28:37.4	618248	1
28:38.1	618528	1
28:38.9	618804	1
28:39.7	619081	1
28:40.5	619362	1
28:41.3	619653	1
28:42.1	619951	1
28:42.9	620249	1
28:43.7	620541	1
28:44.5	620826	1
28:45.3	621102	1
28:46.1	621379	1
28:46.8	621661	1
28:47.6	621944	1
28:48.5	622247	1
28:49.3	622541	1
28:50.1	622823	1
28:50.8	623089	1
28:51.6	623367	1
28:52.3	623638	1
28:53.1	623917	1
28:53.9	624191	1
28:54.7	624482	1
28:55.5	624765	1
28:56.2	625048	1
28:57.0	625309	1
28:57.7	625579	1
28:58.5	625853	1
28:59.3	626138	1
29:00.1	626427	1
29:00.9	626715	1
29:01.7	627000	1
29:02.4	627281	1
29:03.2	627555	1
29:04.0	627827	1
29:04.7	628103	1
29:05.5	628391	1
29:06.4	628688	1
29:07.2	628981	1
29:07.7	629171	0
29:08.6	629494	1
29:09.3	629761	1
29:10.1	630027	1
29:10.8	630289	1
29:11.6	630561	1
29:12.3	630836	1
29:13.1	631110	1
29:13.8	631377	1
29:14.5	631636	1
29:15.3	631898	1
29:16.0	632156	1
29:16.7	632414	1
29:17.5	632688	1
29:18.2	632958	1
29:19.0	633229	1
29:19.7	633498	1
29:20.5	633768	1
29:21.2	634028	1
29:21.9	634283	1
29:22.6	634545	1
29:23.4	634826	1
29:24.2	635107	1
29:25.0	635394	1
29:25.8	635684	1
29:26.6	635966	1
29:27.3	636238	1
29:28.1	636520	1
29:28.9	636811	1
29:29.7	637105	1
29:30.6	637399	1
29:31.4	637704	1
29:32.2	637997	1
29:33.0	638282	1
29:33.8	638560	1
29:34.6	638846	1
29:35.4	639140	1
29:36.2	639446	1
29:37.1	639744	1
29:37.9	640039	1
29:38.7	640329	1
29:39.5	640615	1
29:40.3	640900	1
29:41.0	641178	1
29:41.9	641479	1
29:42.7	641777	1
29:43.5	642065	1
29:44.3	642337	1
29:45.0	642614	1
29:45.8	642887	1
29:46.6	643164	1
29:47.3	643439	1
29:48.1	643721	1
29:48.9	644005	1
29:49.7	644286	1
29:50.4	644547	1
29:51.1	644807	1
29:51.8	645063	1
29:52.6	645320	1
29:53.3	645581	1
29:54.1	645863	1
29:54.8	646132	1
29:55.5	646393	1
29:56.3	646658	1
29:57.0	646916	1
29:57.7	647168	1
29:58.4	647414	1
29:59.1	647672	1
29:59.8	647934	1
30:00.6	648203	1
30:01.3	648477	1
30:02.0	648733	1
30:02.7	648978	1
30:03.4	649232	1
30:04.1	649484	1
30:04.8	649734	1
30:05.5	649991	1
